# Path distance (Angstrom), Energy (eV)
0.000000000000000000e+00 0.000000000000000000e+00
2.373083336200040167e-02 3.748589645216361655e-04
4.746166672400080333e-02 1.499744683765160931e-03
7.119250008600119806e-02 3.355294191935905956e-03
9.492333344800160666e-02 5.922144523239205281e-03
1.186541668100020153e-01 9.180932711880392463e-03
1.423850001720023961e-01 1.311229579206479000e-02
1.661158335340028047e-01 1.769687079799774770e-02
1.898466668960032133e-01 2.291529476388458331e-02
2.135775002580036219e-01 2.874820472393063708e-02
2.373083336200040305e-01 3.517623771234124064e-02
2.610391669820044114e-01 4.218003076332171863e-02
2.847700003440047922e-01 4.974022091107739574e-02
3.085008337060052286e-01 5.783744518981363825e-02
3.322316670680056094e-01 6.645234063373574307e-02
3.559625004300060458e-01 7.556554427704907650e-02
3.796933337920064266e-01 8.515769315395893546e-02
4.034241671540068075e-01 9.520942429867064460e-02
4.271550005160072438e-01 1.057013747453896119e-01
4.508858338780076247e-01 1.166141815283210925e-01
4.746166672400080055e-01 1.279284816816704806e-01
4.993783746844294158e-01 1.392455494585883580e-01
5.241400821288507705e-01 1.492410957212330080e-01
5.489017895732721808e-01 1.580072219144694756e-01
5.736634970176935910e-01 1.656360294831632496e-01
5.984252044621148903e-01 1.722196198721800409e-01
6.231869119065363005e-01 1.778500945263848942e-01
6.479486193509577108e-01 1.826195548906435207e-01
6.727103267953791210e-01 1.866201024098211869e-01
6.974720342398004203e-01 1.899438385287836040e-01
7.222337416842218305e-01 1.926828646923960386e-01
7.469954491286432408e-01 1.949292823455238688e-01
7.717571565730646510e-01 1.967751929330325833e-01
7.965188640174860613e-01 1.983126978997877821e-01
8.212805714619073605e-01 1.996338986906545099e-01
8.460422789063287707e-01 2.008308967504988107e-01
8.708039863507501810e-01 2.019957935241856184e-01
8.955656937951715912e-01 2.032206904565806438e-01
9.203274012395930015e-01 2.045976889925491538e-01
9.450891086840143007e-01 2.062188905769566372e-01
9.698508161284357110e-01 2.081763966546694711e-01
9.941637392840150245e-01 2.108448995436238427e-01
1.018476662439594449e+00 2.145323816314204102e-01
1.042789585595173651e+00 2.191136331157195194e-01
1.067102508750753076e+00 2.244634441941801839e-01
1.091415431906332500e+00 2.304566050644640818e-01
1.115728355061911703e+00 2.369679059242288943e-01
1.140041278217491127e+00 2.438721369711367437e-01
1.164354201373070552e+00 2.510440884028453112e-01
1.188667124528649754e+00 2.583585504170162750e-01
1.212980047684229179e+00 2.656903132113086485e-01
1.237292970839808604e+00 2.729141669833823336e-01
1.261605893995387806e+00 2.799049019308967878e-01
1.285918817150967230e+00 2.865373082515132452e-01
1.310231740306546655e+00 2.926861761428898312e-01
1.334544663462125857e+00 2.982262958026873356e-01
1.358857586617705282e+00 3.030324574285656603e-01
1.383170509773284707e+00 3.069794512181860391e-01
1.407483432928863909e+00 3.099420673692061534e-01
1.431796356084443334e+00 3.117950960792863491e-01
1.456109279240022758e+00 3.124133275460847514e-01
1.480427563769871613e+00 3.117332507929289065e-01
1.504745848299720468e+00 3.098568583649639052e-01
1.529064132829569544e+00 3.069071686828648282e-01
1.553382417359418399e+00 3.030072001673076443e-01
1.577700701889267254e+00 2.982799712389665459e-01
1.602018986419116109e+00 2.928485003185175017e-01
1.626337270948964964e+00 2.868358058266364807e-01
1.650655555478814041e+00 2.803649061839985634e-01
1.674973840008662895e+00 2.735588198112717251e-01
1.699292124538511750e+00 2.665405651291399280e-01
1.723610409068360605e+00 2.594331605582667066e-01
1.747928693598209460e+00 2.523596245193422405e-01
1.772246978128058537e+00 2.454429754330327285e-01
1.796565262657907391e+00 2.388062317200123630e-01
1.820883547187756246e+00 2.325724118009580010e-01
1.845201831717605101e+00 2.268645340965438351e-01
1.869520116247453956e+00 2.218056170274458339e-01
1.893838400777303033e+00 2.175186790143381899e-01
1.918156685307151887e+00 2.141267384778924310e-01
1.942474969837000742e+00 2.117528138387960723e-01
1.967223352265240699e+00 2.100455326750383378e-01
1.991971734693480878e+00 2.085796435284006378e-01
2.016720117121721056e+00 2.072705721576264537e-01
2.041468499549961013e+00 2.060337443214592668e-01
2.066216881978200970e+00 2.047845857786434465e-01
2.090965264406441371e+00 2.034385222879118160e-01
2.115713646834681327e+00 2.019109796080220676e-01
2.140462029262921284e+00 2.001173834977061361e-01
2.165210411691161241e+00 1.979731597157101675e-01
2.189958794119401198e+00 1.953937340207767548e-01
2.214707176547641598e+00 1.922945321716511557e-01
2.239455558975881555e+00 1.885909799270706344e-01
2.264203941404121512e+00 1.841985030457813366e-01
2.288952323832361913e+00 1.790325272865258555e-01
2.313700706260601869e+00 1.730084784080503368e-01
2.338449088688841826e+00 1.660417821690902684e-01
2.363197471117081783e+00 1.580478643283917961e-01
2.387945853545321739e+00 1.489421506446966248e-01
2.412694235973562140e+00 1.386400668767535649e-01
2.437442618401802097e+00 1.270570387832988812e-01
2.461174486547944351e+00 1.155332562780735373e-01
2.484906354694086161e+00 1.044683357454447847e-01
2.508638222840228416e+00 9.387651944596120401e-02
2.532370090986370670e+00 8.377204964017037625e-02
2.556101959132512480e+00 7.416916858862299122e-02
2.579833827278654734e+00 6.508211855186463168e-02
2.603565695424796989e+00 5.652514179044576537e-02
2.627297563570938799e+00 4.851248056491397342e-02
2.651029431717081053e+00 4.105837713581816928e-02
2.674761299863223307e+00 3.417707376370571204e-02
2.698493168009365117e+00 2.788281270912662535e-02
2.722225036155507372e+00 2.218983623262871241e-02
2.745956904301649182e+00 1.711238659476066459e-02
2.769688772447791436e+00 1.266470605607050715e-02
2.793420640593933690e+00 8.861036877106931442e-03
2.817152508740075501e+00 5.715621318417962726e-03
2.840884376886217755e+00 3.242701640552958509e-03
2.864616245032360009e+00 1.456520104059944032e-03
2.888348113178501819e+00 3.713189694869445390e-04
2.912079981324644073e+00 1.340497382429362005e-06
